{ Units, Wavelength Units } SI Microns
{ Thickness } 4
{ Conductivity } 1
{ IR Transmittance } TIR=0
{ Emissivity, front back } Emis= 0.84 0.84
{ }
{ Product Name: NbTiO2_0.0V }
{ Manufacturer: Iowa State University }
{ Type: Monolithic }
{ Material: Glass }
{ Appearance: Clear }
{ NFRC ID: 3000001 }
{ Acceptance: # }
0.3000	0.2670	0.0430	0.0430
0.3080	0.3167	0.0430	0.0430
0.3160	0.3665	0.0430	0.0430
0.3240	0.4164	0.0454	0.0454
0.3320	0.4665	0.0532	0.0532
0.3400	0.5167	0.0650	0.0650
0.3480	0.5671	0.0756	0.0756
0.3560	0.6117	0.0824	0.0824
0.3640	0.6341	0.0856	0.0856
0.3720	0.6398	0.0856	0.0856
0.3800	0.6325	0.0840	0.0840
0.3880	0.6341	0.0856	0.0856
0.3960	0.6338	0.0870	0.0870
0.4040	0.6281	0.0870	0.0870
0.4120	0.6202	0.0866	0.0866
0.4200	0.6122	0.0860	0.0860
0.4280	0.6064	0.0860	0.0860
0.4360	0.6004	0.0850	0.0850
0.4440	0.5953	0.0850	0.0850
0.4520	0.5922	0.0850	0.0850
0.4600	0.5890	0.0850	0.0850
0.4680	0.5863	0.0850	0.0850
0.4760	0.5837	0.0850	0.0850
0.4840	0.5824	0.0850	0.0850
0.4920	0.5812	0.0846	0.0846
0.5000	0.5805	0.0840	0.0840
0.5080	0.5802	0.0840	0.0840
0.5160	0.5803	0.0840	0.0840
0.5240	0.5813	0.0840	0.0840
0.5320	0.5818	0.0840	0.0840
0.5400	0.5829	0.0830	0.0830
0.5480	0.5842	0.0830	0.0830
0.5560	0.5856	0.0830	0.0830
0.5640	0.5873	0.0830	0.0830
0.5720	0.5893	0.0820	0.0820
0.5800	0.5912	0.0820	0.0820
0.5880	0.5929	0.0820	0.0820
0.5960	0.5955	0.0810	0.0810
0.6040	0.5982	0.0810	0.0810
0.6120	0.6003	0.0806	0.0806
0.6200	0.6025	0.0800	0.0800
0.6280	0.6047	0.0800	0.0800
0.6360	0.6073	0.0790	0.0790
0.6440	0.6098	0.0790	0.0790
0.6520	0.6124	0.0786	0.0786
0.6600	0.6147	0.0780	0.0780
0.6680	0.6170	0.0780	0.0780
0.6760	0.6192	0.0770	0.0770
0.6840	0.6212	0.0770	0.0770
0.6920	0.6230	0.0760	0.0760
0.7000	0.6249	0.0760	0.0760
0.7080	0.6260	0.0760	0.0760
0.7160	0.6283	0.0750	0.0750
0.7240	0.6297	0.0750	0.0750
0.7320	0.6308	0.0740	0.0740
0.7400	0.6321	0.0740	0.0740
0.7480	0.6332	0.0740	0.0740
0.7560	0.6342	0.0730	0.0730
0.7640	0.6351	0.0730	0.0730
0.7720	0.6350	0.0726	0.0726
0.7800	0.6356	0.0720	0.0720
0.7880	0.6361	0.0720	0.0720
0.7960	0.6359	0.0718	0.0718
0.8040	0.6279	0.0710	0.0710
0.8120	0.6308	0.0710	0.0710
0.8200	0.6325	0.0710	0.0710
0.8280	0.6324	0.0704	0.0704
0.8360	0.6331	0.0708	0.0708
0.8440	0.6332	0.0700	0.0700
0.8520	0.6335	0.0696	0.0696
0.8600	0.6333	0.0670	0.0670
0.8680	0.6343	0.0830	0.0830
0.8760	0.6341	0.0804	0.0804
0.8840	0.6337	0.0804	0.0804
0.8920	0.6333	0.0832	0.0832
0.9000	0.6326	0.0800	0.0800
0.9080	0.6306	0.0788	0.0788
0.9160	0.6294	0.0804	0.0804
0.9240	0.6281	0.0764	0.0764
0.9320	0.6262	0.0736	0.0736
0.9400	0.6241	0.0710	0.0710
0.9480	0.6228	0.0684	0.0684
0.9560	0.6200	0.0668	0.0668
0.9640	0.6170	0.0660	0.0660
0.9720	0.6150	0.0664	0.0664
0.9800	0.6119	0.0700	0.0700
0.9880	0.6096	0.0656	0.0656
0.9960	0.6064	0.0690	0.0690
1.0040	0.6039	0.0658	0.0658
1.0120	0.5998	0.0654	0.0654
1.0200	0.5964	0.0670	0.0670
1.0280	0.5931	0.0670	0.0670
1.0360	0.5897	0.0672	0.0672
1.0440	0.5852	0.0648	0.0648
1.0520	0.5815	0.0674	0.0674
1.0600	0.5783	0.0660	0.0660
1.0680	0.5742	0.0650	0.0650
1.0760	0.5693	0.0658	0.0658
1.0840	0.5653	0.0650	0.0650
1.0920	0.5604	0.0662	0.0662
1.1000	0.5564	0.0650	0.0650
1.1080	0.5510	0.0666	0.0666
1.1160	0.5462	0.0676	0.0676
1.1240	0.5411	0.0636	0.0636
1.1320	0.5358	0.0674	0.0674
1.1400	0.5309	0.0670	0.0670
1.1480	0.5253	0.0670	0.0670
1.1560	0.5203	0.0642	0.0642
1.1640	0.5142	0.0674	0.0674
1.1720	0.5087	0.0672	0.0672
1.1800	0.5032	0.0650	0.0650
1.1880	0.4981	0.0638	0.0638
1.1960	0.4933	0.0676	0.0676
1.2040	0.4877	0.0652	0.0652
1.2120	0.4825	0.0652	0.0652
1.2200	0.4780	0.0640	0.0640
1.2280	0.4729	0.0648	0.0648
1.2360	0.4686	0.0656	0.0656
1.2440	0.4637	0.0672	0.0672
1.2520	0.4595	0.0648	0.0648
1.2600	0.4548	0.0680	0.0680
1.2680	0.4510	0.0654	0.0654
1.2760	0.4458	0.0666	0.0666
1.2840	0.4420	0.0666	0.0666
1.2920	0.4381	0.0672	0.0672
1.3000	0.4335	0.0670	0.0670
1.3080	0.4289	0.0692	0.0692
1.3160	0.4250	0.0682	0.0682
1.3240	0.4213	0.0666	0.0666
1.3320	0.4172	0.0664	0.0664
1.3400	0.4133	0.0670	0.0670
1.3480	0.4095	0.0662	0.0662
1.3560	0.4052	0.0692	0.0692
1.3640	0.4013	0.0676	0.0676
1.3720	0.3969	0.0668	0.0668
1.3800	0.3932	0.0700	0.0700
1.3880	0.3899	0.0726	0.0726
1.3960	0.3855	0.0680	0.0680
1.4040	0.3810	0.0688	0.0688
1.4120	0.3777	0.0680	0.0680
1.4200	0.3739	0.0680	0.0680
1.4280	0.3709	0.0678	0.0678
1.4360	0.3667	0.0674	0.0674
1.4440	0.3636	0.0682	0.0682
1.4520	0.3604	0.0666	0.0666
1.4600	0.3570	0.0690	0.0690
1.4680	0.3538	0.0694	0.0694
1.4760	0.3502	0.0670	0.0670
1.4840	0.3469	0.0694	0.0694
1.4920	0.3442	0.0688	0.0688
1.5000	0.3413	0.0690	0.0690
1.5080	0.3377	0.0680	0.0680
1.5160	0.3351	0.0702	0.0702
1.5240	0.3323	0.0702	0.0702
1.5320	0.3294	0.0688	0.0688
1.5400	0.3263	0.0690	0.0690
1.5480	0.3236	0.0678	0.0678
1.5560	0.3213	0.0678	0.0678
1.5640	0.3185	0.0694	0.0694
1.5720	0.3155	0.0688	0.0688
1.5800	0.3137	0.0660	0.0660
1.5880	0.3107	0.0696	0.0696
1.5960	0.3080	0.0698	0.0698
1.6040	0.3056	0.0690	0.0690
1.6120	0.3028	0.0696	0.0696
1.6200	0.3005	0.0690	0.0690
1.6280	0.2979	0.0710	0.0710
1.6360	0.2955	0.0686	0.0686
1.6440	0.2924	0.0686	0.0686
1.6520	0.2902	0.0690	0.0690
1.6600	0.2873	0.0730	0.0730
1.6680	0.2847	0.0684	0.0684
1.6760	0.2826	0.0700	0.0700
1.6840	0.2802	0.0716	0.0716
1.6920	0.2778	0.0680	0.0680
1.7000	0.2752	0.0670	0.0670
1.7080	0.2724	0.0700	0.0700
1.7160	0.2701	0.0694	0.0694
1.7240	0.2672	0.0702	0.0702
1.7320	0.2652	0.0696	0.0696
1.7400	0.2628	0.0700	0.0700
1.7480	0.2605	0.0692	0.0692
1.7560	0.2581	0.0690	0.0690
1.7640	0.2557	0.0690	0.0690
1.7720	0.2530	0.0718	0.0718
1.7800	0.2507	0.0710	0.0710
1.7880	0.2484	0.0684	0.0684
1.7960	0.2460	0.0674	0.0674
1.8040	0.2439	0.0658	0.0658
1.8120	0.2415	0.0644	0.0644
1.8200	0.2388	0.0660	0.0660
1.8280	0.2373	0.0642	0.0642
1.8360	0.2353	0.0666	0.0666
1.8440	0.2326	0.0674	0.0674
1.8520	0.2305	0.0664	0.0664
1.8600	0.2279	0.0650	0.0650
1.8680	0.2259	0.0700	0.0700
1.8760	0.2236	0.0674	0.0674
1.8840	0.2219	0.0666	0.0666
1.8920	0.2194	0.0650	0.0650
1.9000	0.2176	0.0640	0.0640
1.9080	0.2158	0.0668	0.0668
1.9160	0.2134	0.0724	0.0724
1.9240	0.2117	0.0740	0.0740
1.9320	0.2095	0.0808	0.0808
1.9400	0.2078	0.0780	0.0780
1.9480	0.2053	0.0752	0.0752
1.9560	0.2038	0.0730	0.0730
1.9640	0.2020	0.0698	0.0698
1.9720	0.1997	0.0698	0.0698
1.9800	0.1983	0.0680	0.0680
1.9880	0.1963	0.0688	0.0688
1.9960	0.1943	0.0664	0.0664
2.0040	0.1933	0.0680	0.0680
2.0120	0.1916	0.0672	0.0672
2.0200	0.1897	0.0680	0.0680
2.0280	0.1879	0.0658	0.0658
2.0360	0.1862	0.0682	0.0682
2.0440	0.1844	0.0674	0.0674
2.0520	0.1828	0.0656	0.0656
2.0600	0.1810	0.0660	0.0660
2.0680	0.1794	0.0680	0.0680
2.0760	0.1780	0.0672	0.0672
2.0840	0.1761	0.0632	0.0632
2.0920	0.1746	0.0654	0.0654
2.1000	0.1732	0.0660	0.0660
2.1080	0.1716	0.0666	0.0666
2.1160	0.1700	0.0670	0.0670
2.1240	0.1680	0.0673	0.0673
2.1320	0.1663	0.0674	0.0674
2.1400	0.1648	0.0676	0.0676
2.1480	0.1636	0.0679	0.0679
2.1560	0.1619	0.0684	0.0684
2.1640	0.1604	0.0688	0.0688
2.1720	0.1586	0.0694	0.0694
2.1800	0.1565	0.0700	0.0700
2.1880	0.1550	0.0705	0.0705
2.1960	0.1538	0.0708	0.0708
2.2040	0.1521	0.0711	0.0711
2.2120	0.1504	0.0713	0.0713
2.2200	0.1492	0.0716	0.0716
2.2280	0.1474	0.0718	0.0718
2.2360	0.1462	0.0719	0.0719
2.2440	0.1451	0.0720	0.0720
2.2520	0.1439	0.0719	0.0719
2.2600	0.1425	0.0714	0.0714
2.2680	0.1412	0.0702	0.0702
2.2760	0.1398	0.0688	0.0688
2.2840	0.1391	0.0675	0.0675
2.2920	0.1381	0.0664	0.0664
2.3000	0.1368	0.0660	0.0660
2.3080	0.1360	0.0661	0.0661
2.3160	0.1348	0.0663	0.0663
2.3240	0.1339	0.0667	0.0667
2.3320	0.1328	0.0671	0.0671
2.3400	0.1319	0.0675	0.0675
2.3480	0.1304	0.0679	0.0679
2.3560	0.1298	0.0684	0.0684
2.3640	0.1287	0.0689	0.0689
2.3720	0.1273	0.0696	0.0696
2.3800	0.1259	0.0702	0.0702
2.3880	0.1245	0.0707	0.0707
2.3960	0.1236	0.0709	0.0709
2.4040	0.1225	0.0710	0.0710
2.4120	0.1210	0.0709	0.0709
2.4200	0.1199	0.0707	0.0707
2.4280	0.1184	0.0705	0.0705
2.4360	0.1177	0.0704	0.0704
2.4440	0.1166	0.0701	0.0701
2.4520	0.1151	0.0700	0.0700
2.4600	0.1142	0.0698	0.0698
2.4680	0.1125	0.0696	0.0696
2.4760	0.1120	0.0695	0.0695
2.4840	0.1109	0.0693	0.0693
2.4920	0.1097	0.0692	0.0692
2.5000	0.1086	0.0690	0.0690
